Pixel,Intensity
-611.648969190591,484
-609.034695003186,509
-606.421010105476,542
-603.807914497461,513
-601.195408179141,516
-598.583491150517,526
-595.972163411587,521
-593.361424962352,537
-590.751275802813,531
-588.141715932969,523
-585.53274535282,535
-582.924364062366,504
-580.316572061607,521
-577.709369350543,512
-575.102755929174,524
-572.4967317975,518
-569.891296955522,515
-567.286451403238,557
-564.68219514065,523
-562.078528167757,508
-559.475450484559,522
-556.872962091056,528
-554.271062987248,531
-551.669753173135,526
-549.069032648718,526
-546.468901413995,562
-543.869359468968,547
-541.270406813635,571
-538.672043447998,579
-536.074269372056,586
-533.477084585809,608
-530.880489089257,643
-528.2844828824,672
-525.689065965239,680
-523.094238337772,754
-520.500000000001,780
-517.906350951924,854
-515.313291193543,924
-512.720820724857,1013
-510.128939545866,1174
-507.53764765657,1328
-504.946945056969,1600
-502.356831747063,1756
-499.767307726853,1804
-497.178372996337,1776
-494.590027555517,1574
-492.002271404392,1437
-489.415104542962,1137
-486.828526971227,1096
-484.242538689187,983
-481.657139696842,1040
-479.072329994192,972
-476.488109581238,1051
-473.904478457978,1052
-471.321436624414,1044
-468.738984080544,949
-466.15712082637,960
-463.575846861891,990
-460.995162187107,985
-458.415066802018,929
-455.835560706625,923
-453.256643900926,955
-450.678316384922,942
-448.100578158614,931
-445.523429222001,848
-442.946869575083,862
-440.370899217859,851
-437.795518150331,872
-435.220726372499,905
-432.646523884361,864
-430.072910685918,866
-427.499886777171,870
-424.927452158118,871
-422.355606828761,881
-419.784350789099,868
-417.213684039132,901
-414.64360657886,881
-412.074118408283,929
-409.505219527401,887
-406.936909936214,899
-404.369189634723,887
-401.802058622926,915
-399.235516900825,873
-396.669564468419,930
-394.104201325708,882
-391.539427472692,880
-388.975242909371,839
-386.411647635745,856
-383.848641651814,856
-381.286224957579,879
-378.724397553038,878
-376.163159438193,908
-373.602510613043,906
-371.042451077587,900
-368.482980831827,882
-365.924099875762,893
-363.365808209393,908
-360.808105832718,894
-358.250992745738,844
-355.694468948454,862
-353.138534440864,788
-350.58318922297,747
-348.028433294771,723
-345.474266656267,733
-342.920689307458,724
-340.367701248344,721
-337.815302478925,739
-335.263492999202,752
-332.712272809173,750
-330.16164190884,772
-327.611600298202,794
-325.062147977258,808
-322.51328494601,809
-319.965011204457,816
-317.4173267526,848
-314.870231590437,828
-312.323725717969,872
-309.777809135197,853
-307.232481842119,873
-304.687743838737,949
-302.14359512505,919
-299.600035701058,935
-297.057065566761,959
-294.514684722159,976
-291.972893167252,1026
-289.43169090204,1016
-286.891077926524,997
-284.351054240702,997
-281.811619844576,949
-279.272774738145,924
-276.734518921409,1004
-274.196852394368,1042
-271.659775157022,1027
-269.123287209371,1077
-266.587388551415,1086
-264.052079183155,1110
-261.517359104589,1157
-258.983228315719,1165
-256.449686816544,1168
-253.916734607063,1146
-251.384371687278,1129
-248.852598057188,1111
-246.321413716794,1178
-243.790818666094,1062
-241.260812905089,1090
-238.73139643378,1095
-236.202569252166,1111
-233.674331360246,1021
-231.146682758022,1020
-228.619623445493,1016
-226.093153422659,974
-223.56727268952,977
-221.041981246077,971
-218.517279092328,989
-215.993166228274,996
-213.469642653916,961
-210.946708369253,992
-208.424363374285,908
-205.902607669012,913
-203.381441253433,900
-200.860864127551,896
-198.340876291363,938
-195.82147774487,912
-193.302668488073,895
-190.78444852097,836
-188.266817843563,797
-185.749776455851,845
-183.233324357834,826
-180.717461549512,825
-178.202188030885,823
-175.687503801953,839
-173.173408862717,868
-170.659903213175,857
-168.146986853328,846
-165.634659783177,763
-163.122922002721,819
-160.61177351196,841
-158.101214310894,787
-155.591244399523,748
-153.081863777847,831
-150.573072445867,818
-148.064870403581,794
-145.55725765099,774
-143.050234188095,793
-140.543800014895,805
-138.03795513139,870
-135.53269953758,815
-133.028033233465,815
-130.523956219045,863
-128.02046849432,827
-125.517570059291,848
-123.015260913956,880
-120.513541058317,887
-118.012410492373,848
-115.511869216124,850
-113.011917229569,896
-110.51255453271,925
-108.013781125547,898
-105.515597008078,897
-103.018002180304,932
-100.520996642226,911
-98.0245803938425,908
-95.5287534351542,963
-93.033515766161,1014
-90.5388673868629,1081
-88.0448082972599,1138
-85.5513384973522,1185
-83.0584579871394,1170
-80.5661667666217,1305
-78.0744648357993,1233
-75.5833521946719,1317
-73.0928288432395,1343
-70.6028947815024,1504
-68.1135500094603,1378
-65.6247945271133,1344
-63.1366283344614,1334
-60.6490514315046,1404
-58.162063818243,1497
-55.6756654946764,1570
-53.189856460805,1729
-50.7046367166288,1773
-48.2200062621475,2041
-45.7359650973614,2392
-43.2525132222704,2734
-40.7696506368745,3277
-38.2873773411737,4157
-35.8056933351681,5220
-33.3245986188575,6558
-30.844093192242,9452
-28.3641770553218,18013
-25.8848502080965,37844
-23.4061126505665,57550
-20.9279643827314,65036
-18.4504054045914,65036
-15.9734357161467,65036
-13.497055317397,65036
-11.0212642083424,65036
-8.54606238898293,65036
-6.07144985931859,65036
-3.59742661934922,65036
-1.12399266907516,65036
1.34885199150392,65036
3.82110736238792,65036
6.29277344357661,65036
8.76385023507032,65036
11.234337736869,24846
13.7042359489724,4731
16.1735448713808,3030
18.6422645040942,2542
21.1103948471123,1978
23.5779359004354,1628
26.0448876640634,1480
28.5112501379961,1516
30.9770233222339,1511
33.4422072167764,1470
35.906801821624,1269
38.3708071367764,1137
40.8342231622337,1004
43.2970498979959,1035
45.759287344063,1164
48.2209355004348,1178
50.6819943671118,1160
53.1424639440936,1199
55.6023442313801,1178
58.0616352289717,1021
60.5203369368681,1048
62.9784493550694,1052
65.4359724835757,1155
67.8929063223868,1188
70.3492508715027,1248
72.8050061309236,1216
75.2601721006495,1238
77.71474878068,1205
80.1687361710157,1158
82.6221342716561,1238
85.0749430826014,1344
87.5271626038517,1358
89.9787928354067,1336
92.4298337772667,1261
94.8802854294316,1233
97.3301477919014,1278
99.7794208646761,1299
102.228104647756,1341
104.67619914114,1324
107.12370434483,1252
109.570620258824,1255
112.016946883123,1360
114.462684217727,1521
116.907832262636,1484
119.35239101785,1392
121.796360483368,1436
124.239740659192,1320
126.68253154532,1286
129.124733141754,1230
131.566345448492,1256
134.007368465535,1249
136.447802192883,1241
138.887646630536,1133
141.326901778494,1161
143.765567636757,1065
146.203644205324,1104
148.641131484197,1140
151.078029473374,1106
153.514338172857,1091
155.950057582644,1033
158.385187702736,1065
160.819728533133,1088
163.253680073835,1047
165.687042324842,1074
168.119815286153,1122
170.55199895777,1056
172.983593339691,1072
175.414598431917,1085
177.845014234449,1134
180.274840747285,1121
182.704077970426,1067
185.132725903872,1020
187.560784547622,1051
189.988253901678,991
192.415133966039,1026
194.841424740704,1022
197.267126225674,1036
199.692238420949,1022
202.11676132653,1064
204.540694942415,1106
206.964039268605,1088
209.386794305099,1136
211.808960051899,1075
214.230536509004,1167
216.651523676413,1124
219.071921554127,1155
221.491730142147,1122
223.910949440471,1164
226.3295794491,1156
228.747620168034,1141
231.165071597272,1221
233.581933736816,1217
235.998206586665,1256
238.413890146818,1340
240.828984417277,1305
243.24348939804,1291
245.657405089108,1208
248.070731490481,1373
250.483468602159,1385
252.895616424142,1372
255.30717495643,1439
257.718144199022,1414
260.12852415192,1411
262.538314815122,1396
264.947516188629,1304
267.356128272442,1302
269.764151066559,1291
272.17158457098,1205
274.578428785707,1236
276.984683710739,1211
279.390349346076,1212
281.795425691717,1255
284.199912747664,1212
286.603810513915,1216
289.007118990471,1217
291.409838177332,1202
293.811968074498,1246
296.213508681969,1173
298.614459999745,1140
301.014822027826,1146
303.414594766211,1103
305.813778214901,1043
308.212372373897,1082
310.610377243197,1027
313.007792822802,1002
315.404619112712,1004
317.800856112927,1000
320.196503823447,1052
322.591562244271,1048
324.986031375401,1029
327.379911216835,973
329.773201768575,954
332.165903030619,939
334.558015002968,928
336.949537685622,968
339.340471078581,965
341.730815181845,956
344.120569995414,929
346.509735519287,906
348.898311753466,922
351.286298697949,923
353.673696352737,897
356.06050471783,888
358.446723793229,864
360.832353578931,892
363.217394074939,889
365.601845281252,890
367.985707197869,883
370.368979824792,887
372.751663162019,874
375.133757209552,868
377.515261967389,895
379.896177435531,848
382.276503613978,839
384.65624050273,857
387.035388101787,841
389.413946411148,843
391.791915430815,865
394.169295160786,916
396.546085601062,890
398.922286751643,892
401.29789861253,879
403.672921183721,869
406.047354465216,897
408.421198457017,914
410.794453159123,903
413.167118571533,905
415.539194694249,925
417.910681527269,860
420.281579070594,931
422.651887324224,851
425.021606288159,868
427.390735962399,884
429.759276346944,849
432.127227441794,827
434.494589246948,840
436.861361762408,818
439.227544988172,801
441.593138924241,763
443.958143570615,829
446.322558927294,835
448.686384994278,770
451.049621771567,782
453.412269259161,821
455.774327457059,822
458.135796365263,854
460.496675983771,839
462.856966312584,882
465.216667351703,924
467.575779101126,868
469.934301560854,932
472.292234730886,981
474.649578611224,996
477.006333201867,1041
479.362498502814,1119
481.718074514067,1172
484.073061235624,1273
486.427458667486,1375
488.781266809653,1620
491.134485662125,1821
493.487115224902,2219
495.839155497984,2407
498.19060648137,2669
500.541468175062,2601
502.891740579058,2394
505.241423693359,2137
507.590517517966,1825
509.939022052877,1685
512.286937298093,1660
514.634263253613,1858
516.980999919439,1991
519.32714729557,2033
521.672705382005,2147
524.017674178746,1809
526.362053685791,1351
528.705843903141,1019
531.049044830796,911
533.391656468756,825
535.733678817021,831
538.075111875591,815
540.415955644466,748
542.756210123645,745
545.09587531313,750
547.434951212919,767
549.773437823013,736
552.111335143412,736
554.448643174116,714
556.785361915125,714
559.121491366439,701
561.457031528058,719
563.791982399981,718
566.12634398221,699
568.460116274743,716
570.793299277581,699
573.125892990724,717
575.457897414173,708
577.789312547925,689
580.120138391983,723
582.450374946346,711
584.780022211013,729
587.109080185986,714
589.437548871264,778
591.765428266846,732
594.092718372733,722
596.419419188925,724
598.745530715422,754
601.071052952224,759
603.395985899331,752
605.720329556742,714
608.044083924458,730
610.36724900248,725
612.689824790806,762
615.011811289437,756
617.333208498373,705
619.654016417614,728
621.97423504716,714
624.293864387011,725
626.612904437166,737
628.931355197627,740
631.249216668392,736
633.566488849463,783
635.883171740838,739
638.199265342518,744
640.514769654503,783
642.829684676793,757
645.144010409388,774
647.457746852287,779
649.770894005492,744
652.083451869001,795
654.395420442816,761
656.706799726935,726
659.017589721359,805
661.327790426088,733
663.637401841122,744
665.946423966461,781
668.254856802104,725
670.562700348053,735
672.869954604306,758
675.176619570865,752
677.482695247728,714
679.788181634896,715
682.093078732369,750
684.397386540147,753
686.70110505823,719
689.004234286617,714
691.30677422531,737
693.608724874308,733
695.91008623361,703
698.210858303217,755
700.511041083129,722
702.810634573347,710
705.109638773868,685
707.408053684695,704
709.705879305827,739
712.003115637263,723
714.299762679005,706
716.595820431051,716
718.891288893403,721
721.186168066059,701
723.48045794902,710
725.774158542286,690
728.067269845857,700
730.359791859732,695
732.651724583913,709
734.943068018399,679
737.233822163189,715
739.523987018284,720
741.813562583684,717
744.102548859389,699
746.3909458454,726
748.678753541715,698
750.965971948334,691
753.252601065259,695
755.538640892488,707
757.824091430023,712
760.108952677862,695
762.393224636006,700
764.676907304455,676
766.960000683209,720
769.242504772268,713
771.524419571632,702
773.805745081301,725
776.086481301274,695
778.366628231553,675
780.646185872136,734
782.925154223024,685
785.203533284217,711
787.481323055715,700
789.758523537518,718
792.035134729626,727
794.311156632039,699
796.586589244756,706
798.861432567779,684
801.135686601106,702
803.409351344738,729
805.682426798676,715
807.954912962917,731
810.226809837465,733
812.498117422316,720
814.768835717473,722
817.038964722935,725
819.308504438701,734
821.577454864772,716
823.845816001149,722
826.11358784783,741
828.380770404816,706
830.647363672107,740
832.913367649703,733
835.178782337603,721
837.443607735809,746
839.70784384432,706
841.971490663135,727
844.234548192255,729
846.497016431681,733
848.758895381411,749
851.020185041446,745
853.280885411786,715
855.54099649243,721
857.80051828338,722
860.059450784634,742
862.317793996194,740
864.575547918058,758
866.832712550227,749
869.089287892701,733
871.345273945481,750
873.600670708564,795
875.855478181953,729
878.109696365647,789
880.363325259645,770
882.616364863949,824
884.868815178557,816
887.12067620347,818
889.371947938688,788
891.622630384212,836
893.872723540039,787
896.122227406172,838
898.37114198261,893
900.619467269352,873
902.8672032664,859
905.114349973752,894
907.360907391409,833
909.606875519372,867
911.852254357638,895
914.097043906211,863
916.341244165087,858
918.584855134269,868
920.827876813756,857
923.070309203547,873
925.312152303643,893
927.553406114045,848
929.794070634751,878
932.034145865762,872
934.273631807078,898
936.512528458699,876
938.750835820624,900
940.988553892855,877
943.225682675391,847
945.462222168231,849
947.698172371376,844
949.933533284827,862
952.168304908581,867
954.402487242641,825
956.636080287007,833
958.869084041676,786
961.101498506651,794
963.33332368193,797
965.564559567515,791
967.795206163404,775
970.025263469598,773
972.254731486097,817
974.483610212901,792
976.71189965001,786
978.939599797424,791
981.166710655143,782
983.393232223166,806
985.619164501494,760
987.844507490128,792
990.069261189066,733
992.293425598309,725
994.517000717857,759
996.73998654771,746
998.962383087868,709
1001.18419033833,733
1003.4054082991,696
1005.62603697017,689
1007.84607635155,701
1010.06552644323,677
1012.28438724522,658
1014.50265875751,676
1016.72034098011,684
1018.93743391301,681
1021.15393755621,662
1023.36985190973,670
1025.58517697354,651
1027.79991274766,692
1030.01405923209,658
1032.22761642682,690
1034.44058433186,676
1036.6529629472,694
1038.86475227284,682
1041.0759523088,684
1043.28656305505,675
1045.49658451161,653
1047.70601667848,622
1049.91485955565,643
1052.12311314312,648
1054.3307774409,675
1056.53785244899,670
1058.74433816738,649
1060.95023459607,659
1063.15554173507,662
1065.36025958438,651
1067.56438814399,657
1069.7679274139,653
1071.97087739412,643
1074.17323808464,646
1076.37500948547,646
1078.57619159661,665
1080.77678441804,687
1082.97678794979,632
1085.17620219184,642
1087.37502714419,655
1089.57326280685,660
1091.77090917981,631
1093.96796626308,637
1096.16443405665,627
1098.36031256053,638
1100.55560177471,634
1102.7503016992,649
1104.94441233399,645
1107.13793367909,638
1109.33086573449,640
1111.5232085002,624
1113.71496197621,619
1115.90612616253,610
1118.09670105915,654
1120.28668666608,622
1122.47608298331,587
1124.66489001085,631
1126.85310774869,625
1129.04073619683,586
1131.22777535529,640
1133.41422522404,624
1135.6000858031,628
1137.78535709247,641
1139.97003909214,656
1142.15413180212,626
1144.3376352224,652
1146.52054935298,652
1148.70287419387,671
1150.88460974507,612
1153.06575600657,644
1155.24631297837,604
1157.42628066048,609
1159.6056590529,625
1161.78444815562,624
1163.96264796864,615
1166.14025849197,644
1168.31727972561,637
1170.49371166954,620
1172.66955432379,615
1174.84480768834,607
1177.01947176319,595
1179.19354654835,640
1181.36703204381,638
1183.53992824958,641
1185.71223516566,629
1187.88395279204,641
1190.05508112872,622
1192.22562017571,625
1194.395569933,628
1196.5649304006,653
1198.7337015785,603
1200.90188346671,682
1203.06947606522,634
1205.23647937404,639
1207.40289339316,628
1209.56871812259,644
1211.73395356232,630
1213.89859971236,636
1216.0626565727,639
1218.22612414335,636
1220.3890024243,622
1222.55129141556,616
1224.71299111712,636
1226.87410152898,679
1229.03462265115,653
1231.19455448363,633
1233.35389702641,643
1235.5126502795,625
1237.67081424289,655
1239.82838891658,662
1241.98537430059,667
1244.14177039489,625
1246.2975771995,640
1248.45279471442,668
1250.60742293964,645
1252.76146187516,669
1254.91491152099,673
1257.06777187713,656
1259.22004294357,687
1261.37172472031,670
1263.52281720736,685
1265.67332040472,684
1267.82323431238,661
1269.97255893034,694
1272.12129425861,687
1274.26944029718,692
1276.41699704606,672
1278.56396450525,667
1280.71034267473,690
1282.85613155453,694
1285.00133114463,669
1287.14594144503,695
1289.28996245574,684
1291.43339417675,687
1293.57623660807,701
1295.71848974969,707
1297.86015360162,709
1300.00122816385,700
1302.14171343639,726
1304.28160941923,711
1306.42091611238,706
1308.55963351583,734
1310.69776162959,675
1312.83530045365,714
1314.97224998802,687
1317.10861023269,713
1319.24438118767,688
1321.37956285295,736
1323.51415522854,720
1325.64815831443,723
1327.78157211062,676
1329.91439661713,704
1332.04663183393,734
1334.17827776104,714
1336.30933439846,668
1338.43980174618,706
1340.56967980421,712
1342.69896857254,743
1344.82766805117,739
1346.95577824011,701
1349.08329913936,682
1351.21023074891,699
1353.33657306876,694
1355.46232609892,710
1357.58748983939,680
1359.71206429016,727
1361.83604945123,725
1363.95944532261,680
1366.0822519043,754
1368.20446919628,722
1370.32609719858,709
1372.44713591118,717
1374.56758533408,708
1376.68744546729,702
1378.8067163108,728
1380.92539786462,745
1383.04349012875,728
1385.16099310317,779
1387.27790678791,751
1389.39423118295,726
1391.50996628829,726
1393.62511210394,712
1395.73966862989,720
1397.85363586615,721
1399.96701381271,720
1402.07980246958,741
1404.19200183675,723
1406.30361191423,770
1408.41463270201,751
1410.5250642001,743
1412.63490640849,799
1414.74415932719,805
1416.85282295619,795
1418.96089729549,792
1421.06838234511,841
1423.17527810502,809
1425.28158457524,805
1427.38730175577,789
1429.4924296466,815
1431.59696824774,869
1433.70091755918,845
1435.80427758092,849
1437.90704831297,873
1440.00922975533,831
1442.11082190799,905
1444.21182477096,894
1446.31223834423,923
1448.4120626278,902
1450.51129762168,921
1452.60994332587,922
1454.70799974036,958
1456.80546686515,1011
1458.90234470025,1011
1460.99863324566,1013
1463.09433250136,1089
1465.18944246738,1102
1467.2839631437,1071
1469.37789453032,1093
1471.47123662725,1124
1473.56398943448,1131
1475.65615295202,1192
1477.74772717987,1239
1479.83871211802,1196
1481.92910776647,1266
1484.01891412523,1275
1486.10813119429,1295
1488.19675897366,1279
1490.28479746333,1349
1492.37224666331,1349
1494.45910657359,1347
1496.54537719418,1428
1498.63105852507,1465
1500.71615056627,1435
1502.80065331777,1443
1504.88456677958,1470
1506.96789095169,1525
1509.05062583411,1509
1511.13277142683,1503
1513.21432772986,1544
1515.29529474319,1574
1517.37567246683,1569
1519.45546090077,1553
1521.53466004501,1559
1523.61326989956,1632
1525.69129046442,1658
1527.76872173958,1681
1529.84556372505,1638
1531.92181642082,1659
1533.99747982689,1612
1536.07255394327,1706
1538.14703876996,1710
1540.22093430695,1680
1542.29424055425,1720
1544.36695751185,1762
1546.43908517975,1700
1548.51062355796,1754
1550.58157264648,1750
1552.6519324453,1734
1554.72170295442,1786
1556.79088417385,1730
1558.85947610358,1813
1560.92747874362,1869
1562.99489209397,1885
1565.06171615462,1987
1567.12795092557,2048
1569.19359640683,2004
1571.25865259839,2096
1573.32311950026,2065
1575.38699711243,2031
1577.45028543491,2017
1579.5129844677,1945
1581.57509421078,1901
1583.63661466418,1853
1585.69754582788,1798
1587.75788770188,1760
1589.81764028619,1657
1591.8768035808,1569
1593.93537758572,1409
1595.99336230094,1359
1598.05075772647,1310
1600.1075638623,1213
1602.16378070844,1156
1604.21940826488,1162
1606.27444653162,1145
1608.32889550868,1118
1610.38275519603,1043
1612.43602559369,1022
1614.48870670166,994
1616.54079851993,964
1618.59230104851,906
1620.64321428739,920
1622.69353823658,911
1624.74327289607,898
1626.79241826586,885
1628.84097434596,839
1630.88894113637,812
1632.93631863708,820
1634.98310684809,839
1637.02930576941,808
1639.07491540104,779
1641.11993574297,759
1643.1643667952,760
1645.20820855774,745
1647.25146103059,729
1649.29412421374,747
1651.33619810719,794
1653.37768271095,754
1655.41857802502,767
1657.45888404939,743
1659.49860078406,764
1661.53772822904,721
1663.57626638432,734
1665.61421524991,711
1667.65157482581,731
1669.688345112,751
1671.72452610851,728
1673.76011781532,728
1675.79512023243,735
1677.82953335985,756
1679.86335719757,694
1681.8965917456,722
1683.92923700393,738
1685.96129297257,761
1687.99275965151,678
1690.02363704076,721
1692.05392514031,749
1694.08362395017,724
1696.11273347033,722
1698.1412537008,691
1700.16918464157,716
1702.19652629265,677
1704.22327865403,708
1706.24944172571,718
1708.2750155077,691
1710.3,702
1712.3243952026,703
1714.34820111551,712
1716.37141773872,671
1718.39404507224,720
1720.41608311606,686
1722.43753187018,705
1724.45839133461,665
1726.47866150935,675
1728.49834239439,677
1730.51743398973,697
1732.53593629538,709
1734.55384931134,686
1736.5711730376,670
1738.58790747416,674
1740.60405262103,675
1742.61960847821,666
1744.63457504569,682
1746.64895232347,686
1748.66274031156,684
1750.67593900995,673
1752.68854841865,665
1754.70056853766,669
1756.71199936697,644
1758.72284090658,630
1760.7330931565,625
1762.74275611672,674
1764.75182978725,629
1766.76031416808,635
1768.76820925922,615
1770.77551506066,614
1772.78223157241,617
1774.78835879447,618
1776.79389672682,634
1778.79884536949,667
1780.80320472245,617
1782.80697478573,637
1784.8101555593,627
1786.81274704319,636
1788.81474923737,628
1790.81616214186,580
1792.81698575666,617
1794.81722008176,615
1796.81686511717,648
1798.81592086288,605
1800.8143873189,604
1802.81226448522,630
1804.80955236185,617
1806.80625094878,607
1808.80236024601,600
1810.79788025355,592
1812.7928109714,624
1814.78715239955,626
1816.78090453801,594
1818.77406738677,628
1820.76664094583,608
1822.7586252152,616
1824.75002019488,628
1826.74082588486,608
1828.73104228514,632
1830.72066939573,565
1832.70970721663,591
1834.69815574783,611
1836.68601498933,582
1838.67328494114,592
1840.65996560325,609
1842.64605697567,584
1844.6315590584,622
1846.61647185143,576
1848.60079535476,571
1850.5845295684,628
1852.56767449234,617
1854.55023012659,610
1856.53219647114,579
1858.513573526,567
1860.49436129117,586
1862.47455976663,607
1864.45416895241,590
1866.43318884848,593
1868.41161945487,581
1870.38946077155,624
1872.36671279855,590
1874.34337553584,597
1876.31944898345,614
1878.29493314135,580
1880.26982800957,604
1882.24413358808,630
1884.2178498769,590
1886.19097687603,607
1888.16351458546,597
1890.1354630052,596
1892.10682213524,596
1894.07759197559,629
1896.04777252624,578
1898.01736378719,626
1899.98636575846,604
1901.95477844002,641
1903.92260183189,642
1905.88983593407,636
1907.85648074655,621
1909.82253626933,627
1911.78800250242,629
1913.75287944582,653
1915.71716709952,630
1917.68086546352,659
1919.64397453783,632
1921.60649432245,639
1923.56842481737,641
1925.52976602259,625
1927.49051793812,605
1929.45068056396,608
1931.4102539001,655
1933.36923794654,619
1935.32763270329,635
1937.28543817034,620
1939.2426543477,627
1941.19928123537,605
1943.15531883333,610
1945.11076714161,609
1947.06562616019,614
1949.01989588907,630
1950.97357632826,593
1952.92666747775,633
1954.87916933755,632
1956.83108190765,649
1958.78240518806,588
1960.73313917877,595
1962.68328387979,620
1964.63283929111,649
1966.58180541274,626
1968.53018224467,595
1970.47796978691,598
1972.42516803945,627
1974.3717770023,623
1976.31779667545,595
1978.26322705891,614
1980.20806815267,618
1982.15231995673,585
1984.0959824711,595
1986.03905569578,601
1987.98153963076,581
1989.92343427605,596
1991.86473963164,586
1993.80545569753,590
1995.74558247374,585
1997.68511996024,588
1999.62406815705,583
2001.56242706417,589
2003.50019668159,578
2005.43737700931,594
2007.37396804734,578
2009.30996979568,532
2011.24538225432,569
2013.18020542326,563
2015.11443930251,565
2017.04808389207,598
2018.98113919193,578
2020.91360520209,559
2022.84548192256,580
2024.77676935333,572
2026.70746749441,556
2028.6375763458,577
2030.56709590748,587
2032.49602617948,570
2034.42436716178,576
2036.35211885438,589
2038.27928125729,560
2040.2058543705,570
2042.13183819402,564
2044.05723272784,564
2045.98203797197,591
2047.9062539264,566
2049.82988059114,577
2051.75291796618,561
2053.67536605153,552
2055.59722484718,553
2057.51849435314,561
2059.4391745694,563
2061.35926549597,551
2063.27876713284,556
2065.19767948002,549
2067.1160025375,563
2069.03373630528,580
2070.95088078338,565
2072.86743597177,585
2074.78340187047,569
2076.69877847948,568
2078.61356579879,556
2080.52776382841,589
2082.44137256833,579
2084.35439201855,565
2086.26682217908,568
2088.17866304992,545
2090.08991463106,569
2092.0005769225,559
2093.91064992425,566
2095.82013363631,554
2097.72902805867,561
2099.63733319133,585
2101.5450490343,537
2103.45217558758,540
2105.35871285116,570
2107.26466082504,557
2109.17001950923,559
2111.07478890373,572
2112.97896900852,602
2114.88255982363,554
2116.78556134904,580
2118.68797358475,562
2120.58979653077,556
2122.49103018709,548
2124.39167455372,562
2126.29172963066,553
2128.19119541789,569
2130.09007191544,587
2131.98835912328,569
2133.88605704144,546
2135.78316566989,581
2137.67968500866,554
2139.57561505772,556
2141.4709558171,573
2143.36570728677,577
2145.25986946676,586
2147.15344235704,566
2149.04642595764,567
2150.93882026853,572
2152.83062528973,556
2154.72184102124,557
2156.61246746305,573
2158.50250461517,532
2160.39195247759,560
2162.28081105032,577
2164.16908033335,592
2166.05676032668,567
2167.94385103032,565
2169.83035244427,559
2171.71626456852,559
2173.60158740308,567
2175.48632094794,564
2177.3704652031,538
2179.25402016857,582
2181.13698584435,566
2183.01936223043,591
2184.90114932681,564
2186.7823471335,579
2188.6629556505,580
2190.5429748778,554
2192.4224048154,576
2194.30124546331,589
2196.17949682152,550
2198.05715889004,576
2199.93423166887,575
2201.810715158,571
2203.68660935743,573
2205.56191426717,602
2207.43662988721,578
2209.31075621756,568
2211.18429325821,560
2213.05724100917,591
2214.92959947044,564
2216.801368642,576
2218.67254852388,581
2220.54313911605,561
2222.41314041854,595
2224.28255243132,596
2226.15137515442,578
2228.01960858781,568
2229.88725273152,588
2231.75430758552,576
2233.62077314984,577
2235.48664942445,583
2237.35193640937,578
2239.2166341046,605
2241.08074251013,573
2242.94426162597,564
2244.80719145211,580
2246.66953198856,569
2248.53128323531,546
2250.39244519236,574
2252.25301785973,579
2254.11300123739,594
2255.97239532536,553
2257.83120012364,588
2259.68941563222,595
2261.5470418511,584
2263.40407878029,574
2265.26052641979,561
2267.11638476959,584
2268.97165382969,562
2270.8263336001,565
2272.68042408082,604
2274.53392527184,596
2276.38683717316,574
2278.23915978479,557
2280.09089310673,567
2281.94203713897,552
2283.79259188151,586
2285.64255733436,575
2287.49193349751,618
2289.34072037097,570
2291.18891795474,554
2293.0365262488,596
2294.88354525318,591
2296.72997496786,585
2298.57581539284,556
2300.42106652813,592
2302.26572837372,602
2304.10980092962,576
2305.95328419582,598
2307.79617817233,585
2309.63848285914,574
2311.48019825626,557
2313.32132436368,573
2315.16186118141,594
2317.00180870944,593
2318.84116694778,608
2320.67993589642,584
2322.51811555537,577
2324.35570592462,577
2326.19270700417,565
2328.02911879404,587
2329.8649412942,591
2331.70017450467,589
2333.53481842545,571
2335.36887305653,566
2337.20233839792,564
2339.03521444961,564
2340.8675012116,585
2342.6991986839,588
2344.53030686651,592
2346.36082575942,598
2348.19075536264,615
2350.02009567616,587
2351.84884669998,593
2353.67700843411,636
2355.50458087855,606
2357.33156403329,617
2359.15795789833,625
2360.98376247368,624
2362.80897775933,607
2364.63360375529,601
2366.45764046156,605
2368.28108787813,629
2370.103946005,621
2371.92621484218,624
2373.74789438966,607
2375.56898464745,640
2377.38948561555,601
2379.20939729394,642
2381.02871968265,630
2382.84745278166,631
2384.66559659097,630
2386.48315111059,630
2388.30011634051,619
2390.11649228074,586
2391.93227893127,641
2393.74747629211,622
2395.56208436325,637
2397.3761031447,602
2399.18953263645,644
2401.00237283851,642
2402.81462375087,632
2404.62628537354,638
2406.43735770651,631
2408.24784074978,624
2410.05773450337,645
2411.86703896725,608
2413.67575414144,623
2415.48388002594,622
2417.29141662074,660
2419.09836392585,646
2420.90472194126,645
2422.71049066697,644
2424.51567010299,648
2426.32026024932,644
2428.12426110595,645
2429.92767267289,646
2431.73049495013,641
2433.53272793767,641
2435.33437163552,652
2437.13542604368,660
2438.93589116214,626
2440.7357669909,655
2442.53505352997,642
2444.33375077935,638
2446.13185873903,666
2447.92937740901,671
2449.7263067893,636
2451.52264687989,668
2453.31839768079,652
2455.113559192,678
2456.9081314135,673
2458.70211434532,658
2460.49550798744,652
2462.28831233986,664
2464.08052740259,664
2465.87215317562,664
2467.66318965896,655
2469.4536368526,651
2471.24349475655,690
2473.0327633708,669
2474.82144269536,647
2476.60953273022,640
2478.39703347539,696
2480.18394493086,672
2481.97026709664,672
2483.75599997272,660
2485.54114355911,656
2487.3256978558,640
2489.1096628628,682
2490.8930385801,680
2492.67582500771,660
2494.45802214562,662
2496.23962999384,659
2498.02064855236,665
2499.80107782118,678
2501.58091780031,695
2503.36016848975,680
2505.13882988949,702
2506.91690199954,694
2508.69438481989,705
2510.47127835054,706
2512.2475825915,708
2514.02329754277,682
2515.79842320434,703
2517.57295957621,670
2519.34690665839,729
2521.12026445088,729
2522.89303295367,726
2524.66521216676,725
2526.43680209016,729
2528.20780272387,737
2529.97821406788,778
2531.74803612219,762
2533.51726888681,770
2535.28591236173,780
2537.05396654696,716
2538.8214314425,767
2540.58830704833,794
2542.35459336448,754
2544.12029039093,808
2545.88539812768,778
2547.64991657474,798
2549.4138457321,833
2551.17718559977,797
2552.93993617774,820
2554.70209746602,848
2556.4636694646,880
2558.22465217349,878
2559.98504559268,872
2561.74484972218,897
2563.50406456198,871
2565.26269011209,903
2567.0207263725,877
2568.77817334322,931
2570.53503102424,930
2572.29129941557,914
2574.0469785172,974
2575.80206832913,958
2577.55656885138,943
2579.31048008392,964
2581.06380202677,927
2582.81653467993,958
2584.56867804339,919
2586.32023211716,936
2588.07119690123,973
2589.8215723956,963
2591.57135860028,961
2593.32055551527,976
2595.06916314056,953
2596.81718147615,995
2598.56461052205,974
2600.31145027826,941
2602.05770074477,961
2603.80336192158,908
2605.5484338087,934
2607.29291640613,940
2609.03680971386,899
2610.78011373189,945
2612.52282846023,929
2614.26495389887,915
2616.00649004782,902
2617.74743690708,932
2619.48779447664,866
2621.2275627565,878
2622.96674174667,914
2624.70533144714,835
2626.44333185792,841
2628.180742979,838
2629.91756481039,826
2631.65379735208,832
2633.38944060408,819
2635.12449456639,798
2636.85895923899,775
2638.59283462191,775
2640.32612071512,780
2642.05881751864,781
2643.79092503247,774
2645.5224432566,767
2647.25337219104,734
2648.98371183578,760
2650.71346219083,705
2652.44262325618,741
2654.17119503184,708
2655.8991775178,690
2657.62657071407,700
2659.35337462064,707
2661.07958923751,716
2662.80521456469,695
2664.53025060218,659
2666.25469734997,671
2667.97855480807,655
2669.70182297647,695
2671.42450185517,664
2673.14659144418,688
2674.8680917435,639
2676.58900275312,652
2678.30932447304,660
2680.02905690327,652
2681.74820004381,644
2683.46675389465,671
2685.18471845579,629
2686.90209372724,624
2688.618879709,582
2690.33507640106,629
2692.05068380342,628
2693.76570191609,601
2695.48013073906,649
2697.19397027234,632
2698.90722051593,617
2700.61988146982,620
2702.33195313401,617
2704.04343550851,611
2705.75432859331,565
2707.46463238842,606
2709.17434689383,636
2710.88347210955,602
2712.59200803557,609
2714.2999546719,589
2716.00731201853,589
2717.71408007547,594
2719.42025884271,589
2721.12584832026,584
2722.83084850811,583
2724.53525940627,593
2726.23908101473,561
2727.9423133335,564
2729.64495636257,592
2731.34701010195,551
2733.04847455163,567
2734.74934971162,580
2736.44963558191,578
2738.1493321625,545
2739.8484394534,582
2741.54695745461,548
2743.24488616612,537
2744.94222558794,560
2746.63897572006,597
2748.33513656248,575
2750.03070811521,560
2751.72569037825,551
2753.42008335159,594
2755.11388703523,551
2756.80710142918,557
2758.49972653344,560
2760.191762348,583
2761.88320887286,553
2763.57406610803,551
2765.26433405351,580
2766.95401270929,542
2768.64310207537,560
2770.33160215176,555
2772.01951293846,550
2773.70683443545,534
2775.39356664276,518
2777.07970956037,523
2778.76526318828,571
2780.4502275265,560
2782.13460257502,550
2783.81838833385,559
2785.50158480298,538
2787.18419198242,534
2788.86620987216,561
2790.54763847221,528
2792.22847778257,561
2793.90872780322,557
2795.58838853419,543
2797.26745997545,551
2798.94594212703,555
2800.6238349889,544
2802.30113856108,543
2803.97785284357,541
2805.65397783636,544
2807.32951353946,547
2809.00445995286,562
2810.67881707657,533
2812.35258491058,524
2814.0257634549,536
2815.69835270952,575
2817.37035267444,536
2819.04176334968,528
2820.71258473521,557
2822.38281683105,537
2824.0524596372,527
2825.72151315365,529
2827.3899773804,538
2829.05785231746,539
2830.72513796483,556
2832.3918343225,539
2834.05794139047,528
2835.72345916875,560
2837.38838765734,542
2839.05272685623,550
2840.71647676542,540
2842.37963738492,544
2844.04220871473,551
2845.70419075484,537
2847.36558350525,546
2849.02638696597,525
2850.68660113699,548
2852.34622601832,514
2854.00526160996,530
2855.6637079119,531
2857.32156492414,521
2858.97883264669,561
2860.63551107954,531
2862.2916002227,530
2863.94710007616,570
2865.60201063993,557
2867.256331914,516
2868.91006389838,513
2870.56320659306,526
2872.21575999805,548
2873.86772411334,550
2875.51909893894,531
2877.16988447484,539
2878.82008072105,560
2880.46968767756,524
2882.11870534438,529
2883.7671337215,501
2885.41497280893,547
2887.06222260666,536
2888.70888311469,554
2890.35495433304,547
2892.00043626168,505
2893.64532890063,544
2895.28963224989,544
2896.93334630945,538
2898.57647107932,517
2900.21900655949,527
2901.86095274996,519
2903.50230965074,529
2905.14307726183,527
2906.78325558322,534
2908.42284461491,532
2910.06184435691,532
2911.70025480922,521
2913.33807597183,526
2914.97530784474,531
2916.61195042796,546
2918.24800372149,522
2919.88346772532,542
2921.51834243945,539
2923.15262786389,516
2924.78632399864,529
2926.41943084368,512
2928.05194839904,527
2929.6838766647,535
2931.31521564066,508
2932.94596532693,510
2934.5761257235,502
2936.20569683038,531
2937.83467864756,503
2939.46307117505,530
2941.09087441284,514
2942.71808836094,537
2944.34471301934,520
2945.97074838805,492
2947.59619446707,507
2949.22105125638,529
2950.845318756,502
2952.46899696593,514
2954.09208588616,532
2955.7145855167,549
2957.33649585754,527
2958.95781690869,524
2960.57854867014,527
2962.1986911419,525
2963.81824432396,541
2965.43720821633,503
2967.055582819,527
2968.67336813197,537
2970.29056415525,542
2971.90717088884,516
2973.52318833273,509
2975.13861648693,501
2976.75345535143,545
2978.36770492623,537
2979.98136521134,532
2981.59443620676,531
2983.20691791248,509
2984.8188103285,550
2986.43011345483,543
2988.04082729147,554
2989.65095183841,528
2991.26048709565,516
2992.8694330632,524
2994.47778974106,512
2996.08555712922,526
2997.69273522768,535
2999.29932403645,522
3000.90532355552,525
3002.5107337849,528
3004.11555472459,526
3005.71978637457,537
3007.32342873487,549
3008.92648180547,513
3010.52894558637,522
3012.13082007758,518
3013.73210527909,521
3015.33280119091,523
3016.93290781303,512
3018.53242514546,524
3020.13135318819,526
3021.72969194123,528
3023.32744140457,498
3024.92460157822,521
3026.52117246217,540
3028.11715405643,517
3029.71254636099,525
3031.30734937586,516
3032.90156310103,507
3034.49518753651,515
3036.08822268229,540
3037.68066853837,517
3039.27252510477,529
3040.86379238146,529
3042.45447036846,529
3044.04455906577,527
3045.63405847338,531
3047.22296859129,517
3048.81128941952,502
3050.39902095804,527
3051.98616320687,550
3053.57271616601,535
3055.15867983545,539
3056.74405421519,504
3058.32883930524,557
3059.9130351056,516
3061.49664161626,519
3063.07965883722,510
3064.66208676849,533
3066.24392541007,505
3067.82517476195,535
3069.40583482413,518
3070.98590559662,524
3072.56538707941,534
3074.14427927251,509
3075.72258217592,541
3077.30029578962,536
3078.87742011364,520
3080.45395514796,552
3082.02990089258,522
3083.60525734751,516
3085.18002451274,532
3086.75420238828,539
3088.32779097412,536
3089.90079027027,515
3091.47320027672,531
3093.04502099348,528
3094.61625242054,523
3096.18689455791,518
3097.75694740558,528
3099.32641096356,497
3100.89528523184,520
3102.46357021043,545
3104.03126589932,506
3105.59837229852,526
3107.16488940802,504
3108.73081722783,518
3110.29615575794,517
3111.86090499835,544
3113.42506494908,514
3114.9886356101,519
3116.55161698143,522
3118.11400906307,521
3119.67581185501,517
3121.23702535725,523
3122.79764956981,493
3124.35768449266,510
3125.91713012582,498
3127.47598646929,496
3129.03425352306,507
3130.59193128713,520
3132.14901976151,504
3133.7055189462,493
3135.26142884119,518
3136.81674944648,524
3138.37148076208,521
3139.92562278798,496
3141.47917552419,502
3143.03213897071,511
3144.58451312753,505
3146.13629799465,520
3147.68749357208,531
3149.23809985981,542
3150.78811685785,507
3152.3375445662,533
3153.88638298484,525
3155.4346321138,515
3156.98229195306,517
3158.52936250262,504
3160.07584376249,503
3161.62173573266,509
3163.16703841314,503
3164.71175180392,495
3166.25587590501,510
3167.7994107164,527
3169.3423562381,524
3170.8847124701,513
3172.42647941241,521
3173.96765706502,525
3175.50824542794,535
3177.04824450116,530
3178.58765428468,511
3180.12647477851,521
3181.66470598265,512
3183.20234789709,499
3184.73940052184,515
3186.27586385689,500
3187.81173790225,510
3189.34702265791,530
3190.88171812387,499
3192.41582430014,512
3193.94934118672,508
3195.4822687836,503
3197.01460709078,506
3198.54635610827,525
3200.07751583607,518
3201.60808627417,524
3203.13806742258,474
3204.66745928128,537
3206.1962618503,501
3207.72447512962,510
3209.25209911924,500
3210.77913381917,512
3212.30557922941,532
3213.83143534995,513
3215.35670218079,495
3216.88137972194,482
3218.40546797339,496
3219.92896693515,521
3221.45187660722,518
3222.97419698958,505
3224.49592808226,495
3226.01706988524,518
3227.53762239852,497
3229.05758562211,477
3230.576959556,498
3232.0957442002,495
3233.6139395547,535
3235.13154561951,505
3236.64856239462,502
3238.16498988004,498
3239.68082807576,496
3241.19607698179,500
3242.71073659812,486
3244.22480692476,516
3245.7382879617,483
3247.25117970894,491
3248.7634821665,491
3250.27519533435,477
3251.78631921251,473
3253.29685380098,498
3254.80679909975,494
3256.31615510883,485
3257.82492182821,497
3259.33309925789,503
3260.84068739789,473
3262.34768624818,505
3263.85409580878,485
3265.35991607969,526
3266.8651470609,497
3268.36978875241,501
3269.87384115423,512
3271.37730426636,515
3272.88017808879,485
3274.38246262152,498
3275.88415786456,494
3277.38526381791,501
3278.88578048156,493
3280.38570785551,499
3281.88504593977,532
3283.38379473433,500
3284.8819542392,512
3286.37952445438,503
3287.87650537986,517
3289.37289701564,500
3290.86869936173,497
3292.36391241812,470
3293.85853618482,483
3295.35257066182,512
3296.84601584913,495
3298.33887174675,503
3299.83113835466,472
3301.32281567289,484
3302.81390370141,512
3304.30440244025,508
3305.79431188938,514
3307.28363204883,508
3308.77236291857,501
3310.26050449863,486
3311.74805678898,496
3313.23501978964,490
3314.72139350061,521
3316.20717792188,483
3317.69237305346,519
3319.17697889534,502
3320.66099544753,511
3322.14442271002,489
3323.62726068282,510
3325.10950936592,514
3326.59116875932,502
3328.07223886303,502
3329.55271967705,517
3331.03261120137,528
3332.511913436,471
3333.99062638093,511
3335.46875003616,515
3336.9462844017,519
3338.42322947755,468
3339.8995852637,511
3341.37535176015,495
3342.85052896691,485
3344.32511688398,500
3345.79911551135,498
3347.27252484902,493
3348.745344897,484
3350.21757565528,504
3351.68921712387,490
3353.16026930277,507
3354.63073219197,502
3356.10060579147,503
3357.56989010128,502
3359.03858512139,494
3360.50669085181,526
3361.97420729253,502
3363.44113444356,513
3364.9074723049,508
3366.37322087653,489
3367.83838015848,509
3369.30295015072,505
3370.76693085328,519
3372.23032226613,508
3373.6931243893,472
3375.15533722276,521
3376.61696076654,498
3378.07799502061,508
3379.538439985,492
3380.99829565968,503
3382.45756204467,489
3383.91623913997,470
3385.37432694557,497
3386.83182546148,506
3388.28873468769,528
3389.74505462421,502
3391.20078527103,490
3392.65592662815,500
3394.11047869559,494
3395.56444147332,528
3397.01781496136,504
3398.47059915971,510
3399.92279406836,510
3401.37439968731,485
3402.82541601657,493
3404.27584305614,488
3405.72568080601,519
3407.17492926618,483
3408.62358843666,504
3410.07165831745,486
3411.51913890854,516
3412.96603020993,486
3414.41233222163,510
3415.85804494364,507
3417.30316837595,485
3418.74770251856,511
3420.19164737148,491
3421.6350029347,484
3423.07776920823,498
3424.51994619207,501
3425.9615338862,511
3427.40253229065,472
3428.8429414054,490
3430.28276123045,483
3431.72199176581,491
3433.16063301147,504
3434.59868496744,535
3436.03614763371,519
3437.47302101029,479
3438.90930509717,508
3440.34499989436,488
3441.78010540185,490
3443.21462161965,485
3444.64854854775,494
3446.08188618616,508
3447.51463453487,483
3448.94679359389,471
3450.37836336321,487
3451.80934384284,505
3453.23973503277,494
3454.669536933,484
3456.09874954354,483
3457.52737286439,505
3458.95540689554,496
3460.382851637,507
3461.80970708876,512
3463.23597325082,496
3464.6616501232,470
3466.08673770587,487
3467.51123599885,491
3468.93514500214,489
3470.35846471573,498
3471.78119513962,486
3473.20333627382,510
3474.62488811833,496
3476.04585067314,485
3477.46622393825,487
3478.88600791367,506
3480.30520259939,481
3481.72380799542,498
3483.14182410176,481
3484.5592509184,477
3485.97608844534,514
3487.39233668259,501
3488.80799563014,489
3490.223065288,485
3491.63754565617,493
3493.05143673464,485
3494.46473852341,493
3495.87745102249,499
3497.28957423187,491
3498.70110815156,500
3500.11205278155,491
3501.52240812185,500
3502.93217417245,481
3504.34135093336,483
3505.74993840457,484
